0.2302857 57.82885
0.2393237 57.400504
0.2483617 59.586853
0.2573997 61.892474
0.2664378 65.916541
0.2754758 70.338917
0.2845138 71.872305
0.2935518 74.136689
0.3025898 78.742629
0.3116278 82.481768
0.3206659 83.427434
0.3297039 88.989483
0.3387419 95.299821
0.3477799 98.290357
0.3568179 100.50507
0.365856 103.90843
0.374894 103.62616
0.383932 101.76254
0.39297 97.718025
0.402008 91.824795
0.411046 86.610578
0.4200841 83.411954
0.4291221 81.346554
0.4381601 80.392437
0.4471981 81.870642
0.4562361 81.658277
0.4652742 83.090015
0.4743122 84.673815
0.4833502 83.862012
0.4923882 84.258595
0.5014262 87.026593
0.5104642 87.518233
0.5195023 87.556005
0.5285403 89.225171
0.5375783 91.967222
0.5466163 91.568272
0.5556543 92.846678
0.5646924 94.433462
0.5737304 94.442513
0.5827684 96.224779
0.5918064 98.136341
0.6008444 98.432254
0.6098824 98.337087
0.6189205 98.983887
0.6279585 98.544812
0.6369965 99.06751
0.6460345 99.282859
0.6550725 99.101312
0.6641105 99.581251
0.6731486 100.38291
0.6821866 101.06344
0.6912246 101.20322
0.7002626 101.94583
0.7093006 103.06512
0.7183387 103.94955
0.7273767 105.77819
0.7364147 106.98599
0.7454527 108.34244
0.7544907 108.85979
0.7635287 108.30728
0.7725668 107.46081
0.7816048 107.1128
0.7906428 106.62824
0.7996808 104.82367
0.8087188 104.82744
0.8177569 104.30147
0.8267949 103.40016
0.8358329 103.91923
0.8448709 104.86539
0.8539089 105.25496
0.8629469 104.67353
0.871985 106.33882
0.881023 106.70889
0.890061 107.08075
0.899099 108.52381
0.908137 110.25551
0.9171751 111.63599
0.9262131 112.09717
0.9352511 114.1378
0.9442891 116.57641
0.9533271 117.68361
0.9623651 118.05185
0.9714032 120.80798
0.9804412 121.7945
0.9894792 122.37413
0.9985172 123.753
1.007555 125.62262
1.016593 127.52107
1.025631 127.81809
1.034669 130.43164
1.043707 133.05483
1.052745 134.53882
1.061783 137.20909
1.070821 141.54215
1.079859 145.11696
1.088897 147.56293
1.097935 150.24805
1.106973 155.78826
1.116011 158.36482
1.125049 159.97609
1.134087 164.87021
1.143126 169.23367
1.152164 173.00103
1.161202 177.04059
1.17024 181.41755
1.179278 187.89335
1.188316 190.72235
1.197354 195.20085
1.206392 203.31717
1.21543 208.89055
1.224468 214.18584
1.233506 220.27987
1.242544 227.67248
1.251582 233.62011
1.26062 237.84017
1.269658 245.87248
1.278696 253.63785
1.287734 257.65396
1.296772 264.25767
1.30581 270.6571
1.314848 275.75826
1.323886 279.30289
1.332924 284.09723
1.341962 289.1701
1.351 292.83535
1.360038 296.429
1.369076 301.12494
1.378114 304.92413
1.387152 305.33006
1.39619 307.04269
1.405228 307.60142
1.414266 306.76767
1.423304 303.76601
1.432342 302.47315
1.44138 299.85258
1.450418 293.61073
1.459456 289.47366
1.468494 283.73384
1.477532 275.91795
1.48657 267.1719
1.495608 261.24511
1.504646 254.66438
1.513684 244.29615
1.522722 235.85208
1.53176 228.67462
1.540798 216.44663
1.549836 205.25261
1.558874 193.48509
1.567912 183.50618
1.57695 176.05727
1.585988 166.95472
1.595026 161.43915
1.604064 154.58964
1.613102 148.07632
1.62214 143.29944
1.631178 137.57585
1.640217 133.69442
1.649255 128.45102
1.658293 123.48591
1.667331 120.40859
1.676369 115.24929
1.685407 111.88796
1.694445 110.59184
1.703483 108.28184
1.712521 107.0676
1.721559 107.15147
1.730597 108.46665
1.739635 109.89639
1.748673 113.14594
1.757711 116.37774
1.766749 119.43587
1.775787 122.64346
1.784825 124.09344
1.793863 123.61867
1.802901 121.46506
1.811939 117.55151
1.820977 111.32832
1.830015 106.83835
1.839053 102.51212
1.848091 98.810214
1.857129 96.462713
1.866167 94.76367
1.875205 93.483262
1.884243 91.512589
1.893281 90.777992
1.902319 90.059337
1.911357 89.221838
1.920395 88.600266
1.929433 89.111709
1.938471 90.082786
1.947509 90.806514
1.956547 92.483876
1.965585 95.738268
1.974623 98.819599
1.983661 103.29896
1.992699 109.64699
2.001737 117.99217
2.010775 132.551
2.019813 148.80915
2.028851 175.58125
2.037889 207.3076
2.046927 235.17529
2.055965 269.17277
2.065003 292.89952
2.074041 297.01201
2.083079 285.96021
2.092117 260.67864
2.101155 226.13593
2.110193 188.50386
2.119231 161.60235
2.128269 133.32875
2.137307 116.63402
2.146346 106.82442
2.155384 98.045936
2.164422 93.325603
2.17346 89.685295
2.182498 86.854639
2.191536 84.83557
2.200574 82.382447
2.209612 81.224059
2.21865 79.495894
2.227688 78.647444
2.236726 79.024986
2.245764 79.358579
2.254802 78.884746
2.26384 79.395799
2.272878 79.503044
2.281916 78.318015
2.290954 77.411904
2.299992 77.172455
2.30903 76.950378
2.318068 76.223105
2.327106 76.55743
2.336144 76.558595
2.345182 76.677305
2.35422 76.274642
2.363258 76.165436
2.372296 76.265132
2.381334 75.93597
2.390372 75.435077
2.39941 75.937472
2.408448 75.779545
2.417486 75.290212
2.426524 75.068373
2.435562 74.858541
2.4446 74.650773
2.453638 73.147778
2.462676 72.739163
2.471714 71.822746
2.480752 70.395573
2.48979 69.364868
2.498828 68.903942
2.507866 68.310875
2.516904 67.149808
2.525942 66.915551
2.53498 66.808576
2.544018 66.402472
2.553056 65.083562
2.562094 65.120992
2.571132 64.683193
2.58017 63.932235
2.589208 64.065955
2.598246 64.679116
2.607284 64.355064
2.616322 63.881111
2.62536 64.166836
2.634398 63.559134
2.643437 63.240397
2.652475 62.569073
2.661513 61.983866
2.670551 61.186347
2.679589 60.800756
2.688627 60.752893
2.697665 61.08537
2.706703 60.686861
2.715741 61.193984
2.724779 61.801184
2.733817 62.131183
2.742855 62.857482
2.751893 64.106755
2.760931 65.289795
2.769969 66.280384
2.779007 67.603193
2.788045 68.693524
2.797083 70.506028
2.806121 72.175465
2.815159 74.490471
2.824197 77.703591
2.833235 81.678968
2.842273 86.546918
2.851311 91.922286
2.860349 101.03568
2.869387 112.9014
2.878425 125.84792
2.887463 148.14393
2.896501 172.37846
2.905539 198.5533
2.914577 222.61443
2.923615 242.92337
2.932653 254.03994
2.941691 250.89755
2.950729 234.8495
2.959767 208.15842
2.968805 182.55567
2.977843 155.8512
2.986881 135.31746
2.995919 117.82167
3.004957 104.356
3.013995 96.811819
3.023033 90.495887
3.032071 86.72082
3.041109 83.953477
3.050147 80.60097
3.059185 78.589431
3.068223 76.796478
3.077261 75.253046
3.086299 74.221455
3.095337 74.186167
3.104375 73.018497
3.113413 72.46723
3.122451 72.769107
3.131489 72.848156
3.140528 73.326889
3.149566 73.293829
3.158604 73.335979
3.167642 73.097116
3.17668 72.933275
3.185718 72.126813
3.194756 72.054773
3.203794 72.33283
3.212832 72.213358
3.22187 71.89003
3.230908 71.480329
3.239946 70.912433
3.248984 70.175056
3.258022 69.680166
3.26706 69.435649
3.276098 69.780213
3.285136 69.34914
3.294174 69.401677
3.303212 69.118319
3.31225 68.476271
3.321288 67.707987
3.330326 67.334711
3.339364 66.900165
3.348402 67.25438
3.35744 68.505488
3.366478 70.007539
3.375516 71.977829
3.384554 73.433584
3.393592 75.316631
3.40263 77.343628
3.411668 79.764475
3.420706 82.484868
3.429744 84.683114
3.438782 86.06063
3.44782 85.893139
3.456858 84.058964
3.465896 82.312868
3.474934 80.651426
3.483972 78.541718
3.49301 77.633289
3.502048 78.438491
3.511086 79.320507
3.520124 81.481542
3.529162 85.703405
3.5382 89.815853
3.547238 94.738174
3.556276 102.50007
3.565314 109.56835
3.574352 115.96005
3.58339 120.49667
3.592428 124.13813
3.601466 122.87836
3.610504 118.49013
3.619542 111.30895
3.62858 102.73496
3.637619 94.561599
3.646657 87.317554
3.655695 81.511602
3.664733 76.542178
3.673771 73.097601
3.682809 70.187456
3.691847 68.502559
3.700885 67.212594
3.709923 66.81333
3.718961 66.232401
3.727999 66.433104
3.737037 66.72613
3.746075 66.762024
3.755113 67.744866
3.764151 68.798072
3.773189 69.104834
3.782227 69.15089
3.791265 69.821562
3.800303 70.228271
3.809341 70.748339
3.818379 70.644228
3.827417 70.791992
3.836455 70.630874
3.845493 69.842505
3.854531 70.570254
3.863569 71.049016
3.872607 71.355445
3.881645 71.697981
3.890683 72.556746
3.899721 72.631034
3.908759 73.081519
3.917797 73.544783
3.926835 74.10164
3.935873 74.921371
3.944911 75.299167
3.953949 76.214462
3.962987 77.213743
3.972025 77.998393
3.981063 78.414879
3.990101 78.825672
3.999139 78.537522
4.008177 78.397246
4.017215 79.084462
4.026253 79.477876
4.035291 80.375691
4.044329 80.579741
4.053367 80.394203
4.062405 80.843975
4.071443 81.05046
4.080481 81.133264
4.089519 82.905713
4.098557 84.598494
4.107595 85.907507
4.116633 89.063936
4.125671 93.309672
4.134709 96.797023
4.143748 99.614798
4.152786 102.20458
4.161824 101.61985
4.170862 100.47879
4.1799 97.094638
4.188938 92.877225
4.197976 89.446947
4.207014 86.585049
4.216052 83.823973
4.22509 81.635331
4.234128 80.324572
4.243166 78.786007
4.252204 77.994055
4.261242 77.347158
4.27028 76.978021
4.279318 76.693427
4.288356 75.644987
4.297394 75.814326
4.306432 76.398549
4.31547 76.387351
4.324508 75.746776
4.333546 75.894839
4.342584 75.3517
4.351622 74.901969
4.36066 74.962642
4.369698 74.339228
4.378736 73.703227
4.387774 73.516419
4.396812 73.038327
4.40585 72.386443
4.414888 72.253677
4.423926 72.913794
4.432964 73.23925
4.442002 73.424169
4.45104 74.088604
4.460078 73.68008
4.469116 73.619767
4.478154 73.306329
4.487192 73.959278
4.49623 74.494391
4.505268 74.68736
4.514306 75.942229
4.523344 76.634678
4.532382 77.109167
4.54142 76.633501
4.550458 76.857989
4.559496 77.213602
4.568534 78.390631
4.577572 81.12591
4.58661 85.790171
4.595648 91.959914
4.604686 98.649607
4.613724 106.92052
4.622762 115.22835
4.6318 121.65413
4.640839 124.65601
4.649877 124.72093
4.658915 121.46683
4.667953 114.7108
4.676991 105.59788
4.686029 97.012097
4.695067 90.316092
4.704105 85.583839
4.713143 81.241943
4.722181 78.526659
4.731219 76.24731
4.740257 74.759314
4.749295 73.284312
4.758333 71.776671
4.767371 71.37529
4.776409 70.675332
4.785447 70.77722
4.794485 70.569553
4.803523 70.663268
4.812561 70.936921
4.821599 70.55569
4.830637 70.865694
4.839675 71.102201
4.848713 70.862578
4.857751 71.210998
4.866789 71.766798
4.875827 71.239204
4.884865 70.618962
4.893903 71.630969
4.902941 71.712919
4.911979 72.251225
4.921017 72.815527
4.930055 73.480456
4.939093 73.839107
4.948131 74.486733
4.957169 75.924175
4.966207 76.337238
4.975245 76.966711
4.984283 77.718889
4.993321 78.765641
5.002359 79.628738
5.011397 80.567614
5.020435 82.517814
5.029473 85.042555
5.038511 87.743668
5.047549 92.008443
5.056587 95.527257
5.065625 98.468445
5.074663 101.4259
5.083701 103.49607
5.092739 103.51708
5.101777 101.1022
5.110815 96.165997
5.119853 89.893578
5.128891 84.012908
5.13793 77.248385
5.146968 70.563511
5.156006 65.526296
5.165044 62.04896
5.174082 59.250662
5.18312 56.058347
5.192158 53.123315
5.201196 50.781589
5.210234 48.387678
5.219272 45.748876
5.22831 43.788462
5.237348 41.674103
5.246386 39.702677
5.255424 37.803163
5.264462 36.101525
5.2735 33.511799
5.282538 30.524215
5.291576 28.308053
5.300614 25.80275
5.309652 23.340951
5.31869 21.534369
5.327728 19.81465
5.336766 18.546419
5.345804 17.833416
5.354842 17.422327
5.36388 17.010029
5.372918 17.026812
5.381956 17.077491
5.390994 17.324633
5.400032 17.057089
5.40907 15.885823
5.418108 14.769524
5.427146 13.605305
5.436184 12.16978
5.445222 10.432787
5.45426 9.9238274
5.463298 9.1068233
5.472336 8.3437514
5.481374 8.8222546
5.490412 8.0678155
5.49945 8.062007
5.508488 8.92322
5.517526 8.9421708
5.526564 9.0693051
5.535602 8.7755372
5.54464 8.4036335
5.553678 8.8460368
5.562716 9.5473586
5.571754 11.006449
5.580792 11.718148
5.58983 12.724609
5.598868 13.765964
5.607906 15.049857
5.616944 15.730947
5.625982 16.468485
5.63502 16.881877
5.644059 17.035894
5.653097 17.734456
5.662135 18.341351
5.671173 19.101346
5.680211 20.126671
5.689249 20.35948
5.698287 21.605378
5.707325 23.340133
5.716363 24.241094
5.725401 24.990458
5.734439 25.916455
5.743477 27.031839
5.752515 27.705677
5.761553 28.201126
5.770591 28.931566
5.779629 29.692691
5.788667 30.044249
5.797705 30.930227
5.806743 32.212212
5.815781 33.497473
5.824819 34.961463
5.833857 37.041915
5.842895 39.494657
5.851933 40.408083
5.860971 40.788833
5.870009 41.800956
5.879047 41.967036
5.888085 41.715357
5.897123 41.966672
5.906161 41.061048
5.915199 40.557294
5.924237 40.313334
5.933275 40.307233
5.942313 39.91033
5.951351 39.291053
5.960389 38.956657
5.969427 39.3682
5.978465 39.273067
5.987503 39.331972
5.996541 39.972665
6.005579 39.822649
6.014617 40.310024
6.023655 40.574705
6.032693 40.960739
6.041731 40.375205
6.050769 40.383482
6.059807 41.341959
6.068845 41.582413
6.077883 42.36171
6.086921 42.955519
6.095959 44.045789
6.104997 45.280588
6.114035 45.760284
6.123073 46.852097
6.132111 47.650324
6.14115 47.364512
6.150188 47.302704
6.159226 47.73241
6.168264 48.3202
6.177302 49.129227
6.18634 50.41256
6.195378 51.506967
6.204416 52.65797
6.213454 53.735113
6.222492 54.88638
6.23153 55.376248
6.240568 55.003341
6.249606 53.64
6.258644 52.052079
6.267682 50.666569
6.27672 48.751904
6.285758 46.152341
6.294796 43.828278
6.303834 42.221846
6.312872 41.136133
6.32191 40.029247
6.330948 39.738433
6.339986 39.443954
6.349024 38.880027
6.358062 39.159872
6.3671 38.636519
6.376138 38.343776
6.385176 37.723799
6.394214 36.874859
6.403252 36.617332
6.41229 36.084097
6.421328 36.53044
6.430366 37.197043
6.439404 36.842816
6.448442 36.913874
6.45748 37.388296
6.466518 37.651287
6.475556 37.860989
6.484594 38.26484
6.493632 38.10729
6.50267 38.054968
6.511708 38.858638
6.520746 40.100555
6.529784 40.892915
6.538822 41.33949
6.54786 41.768694
6.556898 42.620913
6.565936 42.779757
6.574974 42.955486
6.584012 42.443951
6.59305 41.10238
6.602088 40.265702
6.611126 39.438856
6.620164 38.336729
6.629202 37.054114
6.638241 35.851136
6.647279 34.488479
6.656317 33.39491
6.665355 32.831961
6.674393 32.09898
6.683431 31.325235
6.692469 30.78193
6.701507 30.317865
6.710545 30.216735
6.719583 29.129669
6.728621 29.158199
6.737659 29.411771
6.746697 29.283028
6.755735 29.329647
6.764773 29.900569
6.773811 29.615191
6.782849 29.871617
6.791887 30.670305
6.800925 30.688068
6.809963 31.135153
6.819001 31.336766
6.828039 31.257529
6.837077 30.768593
6.846115 30.549165
6.855153 31.026354
6.864191 31.65328
6.873229 32.729845
6.882267 33.575406
6.891305 33.767127
6.900343 34.145762
6.909381 34.654565
6.918419 34.314356
6.927457 33.468412
6.936495 32.103618
6.945533 30.684705
6.954571 29.633398
6.963609 28.553355
6.972647 28.01107
6.981685 27.469066
6.990723 26.329209
6.999761 26.447754
7.008799 25.816714
7.017837 25.535376
7.026875 26.055391
7.035913 26.163085
7.044951 26.174674
7.053989 26.758406
7.063027 27.454878
7.072065 28.060586
7.081103 28.396168
7.090141 28.809804
7.099179 28.824514
7.108217 28.792535
7.117255 29.07031
7.126293 29.208992
7.135332 29.323541
7.14437 29.937736
7.153408 30.712935
7.162446 30.640338
7.171484 30.996574
7.180522 30.925576
7.18956 30.299873
7.198598 30.458846
7.207636 30.967675
7.216674 31.691672
7.225712 32.018565
7.23475 32.467749
7.243788 32.936425
7.252826 32.72163
7.261864 33.021352
7.270902 33.507309
7.27994 33.550283
7.288978 33.306026
7.298016 33.724342
7.307054 33.090219
7.316092 32.727303
7.32513 32.895585
7.334168 32.87494
7.343206 33.446782
7.352244 34.08142
7.361282 34.056667
7.37032 33.878485
7.379358 34.738099
7.388396 35.958974
7.397434 37.369801
7.406472 38.3135
7.41551 38.208272
7.424548 38.981769
7.433586 39.932387
7.442624 40.395537
7.451662 41.331733
7.4607 41.394139
7.469738 41.078846
7.478776 41.381739
7.487814 41.424313
7.496852 41.738053
7.50589 42.345986
7.514928 42.136688
7.523966 42.029898
7.533004 41.596623
7.542042 41.166251
7.55108 40.949703
7.560118 40.577156
7.569156 40.131163
7.578194 39.756009
7.587232 39.349475
7.59627 38.667441
7.605308 38.782469
7.614346 39.349802
7.623384 39.832416
7.632422 40.606624
7.641461 40.796336
7.650499 40.920296
7.659537 40.758872
7.668575 40.612394
7.677613 40.57896
7.686651 40.671436
7.695689 41.209202
7.704727 41.579708
7.713765 42.510233
7.722803 42.827611
7.731841 43.635312
7.740879 44.72415
7.749917 45.579767
7.758955 46.903248
7.767993 47.393843
7.777031 47.33217
7.786069 47.379259
7.795107 47.515584
7.804145 47.013465
7.813183 46.836423
7.822221 46.669668
7.831259 45.390569
7.840297 44.370761
7.849335 43.926295
7.858373 43.451907
7.867411 42.349416
7.876449 41.469933
7.885487 41.183905
7.894525 40.215841
7.903563 40.294212
7.912601 40.931531
7.921639 41.127607
7.930677 41.397998
7.939715 42.405672
7.948753 42.287749
7.957791 41.797651
7.966829 42.317002
7.975867 42.537093
7.984905 42.351908
7.993943 42.168392
8.002981 41.11377
8.012019 40.692952
8.021057 40.778587
8.030095 40.199766
8.039133 39.826069
8.048171 39.020217
8.057209 38.064242
8.066247 37.59063
8.075285 37.132093
8.084323 36.986134
8.093361 36.54054
8.102399 36.556966
8.111437 36.57571
8.120475 36.133821
8.129513 36.10497
8.138552 36.733511
8.14759 37.161695
8.156628 36.970663
8.165666 37.363762
8.174704 37.109537
8.183742 37.033672
8.19278 37.485004
8.201818 37.503969
8.210856 37.511174
8.219894 37.313183
8.228932 37.30589
8.23797 37.317229
8.247008 36.644664
8.256046 37.024653
8.265084 36.915077
8.274122 36.871815
8.28316 37.294594
8.292198 37.365593
8.301236 38.018532
8.310274 38.652709
8.319312 38.392459
8.32835 38.599404
8.337388 37.94384
8.346426 37.91269
8.355464 38.349134
8.364502 37.81304
8.37354 37.511802
8.382578 36.624604
8.391616 36.21431
8.400654 35.968143
8.409692 35.534781
8.41873 34.5289
8.427768 34.615981
8.436806 34.695163
8.445844 34.352961
8.454882 34.347303
8.46392 34.201026
8.472958 34.731557
8.481996 35.400648
8.491034 35.633639
8.500072 36.096393
8.50911 36.987746
8.518148 37.661221
8.527186 37.740252
8.536224 37.417572
8.545262 37.158073
8.5543 37.45519
8.563338 37.808625
8.572376 38.15192
8.581414 38.145174
8.590452 38.305177
8.59949 38.231683
8.608528 38.44646
8.617566 38.191143
8.626604 37.317635
8.635643 36.018473
8.644681 35.705682
8.653719 35.275014
8.662757 35.061157
8.671795 35.619375
8.680833 35.760563
8.689871 35.568465
8.698909 35.652204
8.707947 35.935013
8.716985 35.790607
8.726023 35.697012
8.735061 35.205736
8.744099 34.945314
8.753137 34.613487
8.762175 34.907483
8.771213 35.555583
8.780251 35.239484
8.789289 35.595206
8.798327 36.047588
8.807365 35.627449
8.816403 35.700713
8.825441 35.408487
8.834479 34.645655
8.843517 34.679616
8.852555 34.411061
8.861593 34.307225
8.870631 34.460734
8.879669 34.728082
8.888707 35.162399
8.897745 34.904535
8.906783 34.330006
8.915821 34.377298
8.924859 33.992607
8.933897 33.888619
8.942935 33.690958
8.951973 32.731885
8.961011 32.480034
8.970049 33.106991
8.979087 33.376432
8.988125 33.510828
8.997163 33.738689
9.006201 33.627284
9.015239 33.87412
9.024277 34.128687
9.033315 34.193928
9.042353 34.350192
9.051391 34.286616
9.060429 34.113788
9.069467 34.06348
9.078505 34.013837
9.087543 33.726011
9.096581 33.38794
9.105619 32.995117
9.114657 32.587944
9.123695 32.623212
9.132734 32.571211
9.141772 32.3359
9.15081 32.569463
9.159848 32.534401
9.168886 32.067281
9.177924 31.440195
9.186962 30.994289
9.196 30.812672
9.205038 30.98652
9.214076 31.60698
9.223114 31.928916
9.232152 32.110907
9.24119 32.425182
9.250228 32.599849
9.259266 32.409843
9.268304 32.717596
9.277342 32.96344
9.28638 32.673422
9.295418 32.777869
9.304456 32.713109
9.313494 32.274589
9.322532 32.088806
9.33157 31.896622
9.340608 31.868005
9.349646 31.767362
9.358684 31.240688
9.367722 30.476461
9.37676 30.336143
9.385798 30.93016
9.394836 31.480498
9.403874 31.718032
9.412912 31.481822
9.42195 31.606021
9.430988 32.608997
9.440026 33.130981
9.449064 32.635457
9.458102 32.023776
9.46714 31.187936
9.476178 30.526468
9.485216 30.97321
9.494254 30.591623
9.503292 30.485535
9.51233 31.087789
9.521368 31.21007
9.530406 31.207657
9.539444 31.625531
9.548482 31.701569
9.55752 32.310796
9.566558 33.043975
9.575596 32.34675
9.584634 32.333394
9.593672 31.895487
9.60271 31.501306
9.611748 31.360354
9.620786 31.010902
9.629824 31.124152
9.638863 30.783943
9.647901 30.856296
9.656939 30.974341
9.665977 30.55907
9.675015 30.377515
9.684053 30.097967
9.693091 29.733859
9.702129 29.778707
9.711167 29.717712
9.720205 29.350599
9.729243 29.764806
9.738281 30.454818
9.747319 30.306251
9.756357 30.752163
9.765395 30.579185
9.774433 30.898696
9.783471 31.160507
9.792509 31.111209
9.801547 30.559713
9.810585 30.858526
9.819623 31.011858
9.828661 30.671987
9.837699 30.118917
9.846737 29.897746
9.855775 29.65001
9.864813 29.784218
9.873851 30.29304
9.882889 30.280806
9.891927 30.512371
9.900965 30.671453
9.910003 30.536319
9.919041 30.621312
9.928079 31.02324
9.937117 30.920027
9.946155 30.395163
9.955193 30.256298
9.964231 29.851523
9.973269 29.538385
9.982307 29.643688
9.991345 29.723897
10.00038 29.708338
10.00942 29.952773
10.01846 30.165837
10.0275 29.839749
10.03654 29.698143
10.04557 29.061037
10.05461 28.600979
10.06365 28.511055
10.07269 28.450966
10.08173 28.488711
10.09076 28.875992
10.0998 29.335288
10.10884 30.312354
10.11788 31.00905
10.12692 31.359056
10.13595 30.757493
10.14499 29.812155
10.15403 29.704626
10.16307 29.85204
10.17211 29.997122
10.18114 30.173198
10.19018 30.004726
10.19922 29.820277
10.20826 29.572217
10.2173 29.27457
10.22633 29.058587
10.23537 28.459014
10.24441 28.429789
10.25345 28.275922
10.26249 28.260861
10.27152 28.54304
10.28056 28.850398
10.2896 28.790341
10.29864 28.913654
10.30768 29.238256
10.31671 28.971012
10.32575 28.741221
10.33479 28.501268
10.34383 28.344568
10.35287 28.233056
10.3619 29.367256
10.37094 29.886578
10.37998 30.226024
10.38902 30.688761
10.39806 30.911316
10.40709 30.770187
10.41613 30.578111
10.42517 29.971653
10.43421 29.406419
10.44325 28.87348
10.45228 29.045988
10.46132 28.66577
10.47036 28.779924
10.4794 28.844134
10.48844 28.353846
10.49747 28.265362
10.50651 27.929652
10.51555 27.970622
10.52459 28.065323
10.53363 28.344441
10.54266 29.114364
10.5517 29.149792
10.56074 29.306517
10.56978 29.732159
10.57882 28.980854
10.58785 28.979605
10.59689 28.990831
10.60593 29.222534
10.61497 29.553429
10.62401 29.572139
10.63304 29.353561
10.64208 28.922116
10.65112 28.532534
10.66016 28.451358
10.6692 27.962914
10.67823 27.9005
10.68727 27.762106
10.69631 27.889946
10.70535 28.12272
10.71439 28.021997
10.72342 27.661677
10.73246 27.067914
10.7415 26.870384
10.75054 27.130911
10.75958 26.784558
10.76861 26.80183
10.77765 26.813232
10.78669 26.434148
10.79573 26.731737
10.80477 26.3944
10.8138 26.81926
10.82284 27.007253
10.83188 26.820146
10.84092 26.887871
10.84996 26.114749
10.85899 25.716103
10.86803 25.494647
10.87707 25.134189
10.88611 25.074044
10.89515 24.920616
10.90419 24.598817
10.91322 24.315181
10.92226 24.482061
10.9313 24.347404
10.94034 24.585681
10.94938 25.047607
10.95841 25.28441
10.96745 25.414603
10.97649 25.183799
10.98553 25.149213
10.99457 25.070541
11.0036 25.085933
11.01264 24.961921
11.02168 24.718244
11.03072 24.115913
11.03976 24.388518
11.04879 24.172241
11.05783 23.370022
11.06687 23.757188
11.07591 23.62523
11.08495 22.95181
11.09398 23.511284
11.10302 23.557424
11.11206 23.823771
11.1211 24.338967
11.13014 24.579292
11.13917 24.816536
11.14821 24.844448
11.15725 24.742042
11.16629 23.827786
11.17533 24.055485
11.18436 24.609942
11.1934 24.480845
11.20244 24.95279
11.21148 24.623627
11.22052 24.007501
11.22955 24.274378
11.23859 23.773005
11.24763 23.462214
11.25667 22.84727
11.26571 22.445429
11.27474 23.076132
11.28378 22.97448
11.29282 22.930431
11.30186 22.990568
11.3109 22.954391
11.31993 23.578777
11.32897 23.763393
11.33801 23.47346
11.34705 23.223423
11.35609 23.194375
11.36512 23.171276
11.37416 22.96429
11.3832 22.873655
11.39224 22.82383
11.40128 22.97063
11.41031 23.761349
11.41935 23.593165
11.42839 23.296866
11.43743 23.442334
11.44647 22.844607
11.4555 23.160959
11.46454 22.768556
11.47358 22.065174
11.48262 22.332236
11.49166 22.533055
11.50069 22.903228
11.50973 23.57573
11.51877 24.078415
11.52781 24.616663
11.53685 24.626122
11.54588 24.171004
11.55492 24.565226
11.56396 24.883572
11.573 24.93397
11.58204 24.88208
11.59107 24.257248
11.60011 23.863733
11.60915 23.623347
11.61819 23.483563
11.62723 23.563351
11.63626 23.964567
11.6453 23.754055
11.65434 23.480847
11.66338 23.913226
11.67242 23.921798
11.68145 24.146382
11.69049 23.860829
11.69953 23.60827
11.70857 24.313179
11.71761 25.010044
11.72664 25.102917
11.73568 25.408581
11.74472 25.242024
11.75376 25.257006
11.7628 25.410397
11.77183 25.220354
11.78087 25.019782
11.78991 25.13062
11.79895 24.954677
11.80799 24.32433
11.81702 23.946527
11.82606 23.31173
11.8351 23.018929
11.84414 23.483672
11.85318 23.491088
11.86221 24.394743
11.87125 24.557223
11.88029 24.268318
11.88933 24.802537
11.89837 24.927637
11.90741 25.073031
11.91644 25.465709
11.92548 26.105672
11.93452 25.962389
11.94356 25.770252
11.9526 25.6399
11.96163 25.627585
11.97067 25.031918
11.97971 25.123235
11.98875 24.098115
11.99779 23.43016
12.00682 23.518981
12.01586 23.145657
12.0249 23.417177
12.03394 23.453764
12.04298 23.979147
12.05201 24.901834
12.06105 25.353786
12.07009 25.700879
12.07913 25.497416
12.08817 25.310326
12.0972 24.831885
12.10624 24.475049
12.11528 23.423907
12.12432 24.224702
12.13336 24.373063
12.14239 24.71686
12.15143 24.399505
12.16047 23.617046
12.16951 24.027818
12.17855 24.480052
12.18758 23.937375
12.19662 24.15408
12.20566 23.162377
12.2147 23.118465
12.22374 23.402738
12.23277 23.313748
12.24181 23.348179
12.25085 23.391532
12.25989 23.168317
12.26893 24.038325
12.27796 24.042776
12.287 24.445787
12.29604 24.455939
12.30508 24.391496
12.31412 24.566434
12.32315 24.14599
12.33219 23.639184
12.34123 23.341699
12.35027 23.09635
12.35931 22.710297
12.36834 22.380524
12.37738 22.181713
12.38642 22.401385
12.39546 22.175644
12.4045 22.030089
12.41353 21.674435
12.42257 21.116178
12.43161 21.377162
12.44065 21.004755
12.44969 20.528702
12.45872 20.268315
12.46776 19.575298
12.4768 19.628895
12.48584 19.859187
12.49488 20.399076
12.50391 21.009151
12.51295 21.224487
12.52199 21.093656
12.53103 20.940889
12.54007 20.754777
12.5491 20.3382
12.55814 20.794124
12.56718 20.809756
12.57622 20.543219
12.58526 20.504647
12.59429 20.154046
12.60333 20.620412
12.61237 20.539069
12.62141 19.826734
12.63045 20.376822
12.63948 20.241168
12.64852 20.25994
12.65756 20.145459
12.6666 19.657034
12.67564 19.533485
12.68467 19.072627
12.69371 18.705807
12.70275 18.358641
12.71179 17.608323
12.72083 17.272783
12.72986 17.032419
12.7389 16.542839
12.74794 16.236292
12.75698 16.411808
12.76602 16.5095
12.77505 16.788908
12.78409 16.250739
12.79313 16.080627
12.80217 15.818583
12.81121 15.845898
12.82024 15.373006
12.82928 15.363724
12.83832 14.945301
12.84736 14.836318
12.8564 15.542787
12.86543 15.746561
12.87447 16.047237
12.88351 16.469836
12.89255 16.445691
12.90159 17.239893
12.91063 17.528934
12.91966 17.776557
12.9287 17.566743
12.93774 17.341903
12.94678 17.387105
12.95582 16.829539
12.96485 16.493342
12.97389 16.12443
12.98293 15.841559
12.99197 16.213091
13.00101 16.059509
13.01004 16.305764
13.01908 16.209289
13.02812 15.652085
13.03716 14.697171
13.0462 14.199991
13.05523 14.11528
13.06427 14.176676
13.07331 14.748965
13.08235 14.678201
13.09139 14.782658
13.10042 14.698725
13.10946 14.99407
13.1185 14.407834
13.12754 15.15972
13.13658 15.271622
13.14561 15.335214
13.15465 15.827957
13.16369 15.880036
13.17273 15.828039
13.18177 15.985417
13.1908 15.871172
13.19984 15.414942
13.20888 15.126771
13.21792 14.438
13.22696 13.917631
13.23599 13.911647
13.24503 13.886408
13.25407 14.460852
13.26311 14.600297
13.27215 14.705194
13.28118 14.032788
13.29022 13.808129
13.29926 13.32643
13.3083 13.301406
13.31734 13.466959
13.32637 13.034042
13.33541 13.366174
13.34445 13.581321
13.35349 14.013875
13.36253 14.648645
13.37156 14.208232
13.3806 13.700937
13.38964 13.585895
13.39868 13.779259
13.40772 13.566356
13.41675 14.086425
13.42579 14.196372
13.43483 14.264315
13.44387 14.995942
13.45291 14.513112
13.46194 14.601441
13.47098 14.400471
13.48002 13.137987
13.48906 12.96731
13.4981 12.788187
13.50713 12.326538
13.51617 12.68647
13.52521 12.67343
13.53425 13.280745
13.54329 13.533264
13.55232 13.3437
13.56136 12.817618
13.5704 12.569864
13.57944 12.587195
13.58848 11.769003
13.59751 11.924148
13.60655 12.42763
13.61559 13.200768
13.62463 14.015996
13.63367 14.186468
13.6427 14.474663
13.65174 14.759902
13.66078 14.749054
13.66982 14.466459
13.67886 14.036915
13.68789 13.398263
13.69693 13.40031
13.70597 12.495665
13.71501 12.70098
13.72405 12.144435
13.73308 12.375941
13.74212 12.759161
13.75116 13.18336
13.7602 13.633579
13.76924 13.893734
13.77827 14.349767
13.78731 13.975527
13.79635 14.246015
13.80539 14.328765
13.81443 13.918559
13.82346 13.955034
13.8325 13.976733
13.84154 14.313505
13.85058 14.284669
13.85962 13.894791
13.86865 14.159513
13.87769 14.098875
13.88673 14.459534
13.89577 14.443613
13.90481 14.40542
13.91385 14.611849
13.92288 14.511342
13.93192 14.69347
13.94096 14.706075
13.95 15.09158
13.95904 15.027818
13.96807 14.720863
13.97711 14.023836
13.98615 14.079071
13.99519 13.530847
14.00423 13.726701
14.01326 13.8118
14.0223 14.133596
14.03134 14.252622
14.04038 13.582054
14.04942 13.090632
14.05845 13.375343
14.06749 13.158275
14.07653 12.881061
14.08557 13.091655
14.09461 13.131428
14.10364 13.63859
14.11268 13.553057
14.12172 13.959052
14.13076 14.096182
14.1398 13.75253
14.14883 13.828171
14.15787 13.49977
14.16691 13.944148
14.17595 14.214526
14.18499 13.610911
14.19402 13.899886
14.20306 13.623701
14.2121 13.171526
14.22114 12.963202
14.23018 12.311754
14.23921 12.051796
14.24825 12.494045
14.25729 12.481318
14.26633 12.213421
14.27537 12.219238
14.2844 12.128688
14.29344 12.494807
14.30248 13.173814
14.31152 12.850938
14.32056 13.225491
14.32959 13.539176
14.33863 13.148452
14.34767 13.266328
14.35671 12.964674
14.36575 12.882468
14.37478 12.506148
14.38382 12.476418
14.39286 12.770223
14.4019 13.93661
14.41094 14.06557
14.41997 13.219047
14.42901 12.499425
14.43805 12.292013
14.44709 12.254567
14.45613 12.877299
14.46516 12.908106
14.4742 12.476082
14.48324 12.774585
14.49228 12.672924
14.50132 12.73472
14.51035 13.002267
14.51939 13.007957
14.52843 13.476718
14.53747 13.935015
14.54651 13.884665
14.55554 13.219109
14.56458 12.672767
14.57362 12.927898
14.58266 13.086941
14.5917 13.577239
14.60073 13.465081
14.60977 12.951951
14.61881 11.972159
14.62785 11.870133
14.63689 11.992564
14.64592 12.356602
14.65496 12.449714
14.664 12.701278
14.67304 12.442107
14.68208 12.728071
14.69111 12.992219
14.70015 12.648542
14.70919 12.922458
14.71823 12.580169
14.72727 12.607465
14.7363 12.682847
14.74534 12.715625
14.75438 12.993051
14.76342 12.964472
14.77246 13.122683
14.78149 12.963045
14.79053 13.428709
14.79957 13.256782
14.80861 13.136981
14.81765 13.133173
14.82668 12.697723
14.83572 12.697042
14.84476 12.291864
14.8538 11.800957
14.86284 11.35484
14.87187 11.308372
14.88091 11.215061
14.88995 11.501918
14.89899 11.753461
14.90803 12.072513
14.91707 12.544413
14.9261 13.060898
14.93514 13.187905
14.94418 13.771251
14.95322 13.284072
14.96226 12.815742
14.97129 11.728995
14.98033 11.090833
14.98937 11.462082
14.99841 11.882535
15.00745 11.581908
15.01648 11.456755
15.02552 11.207762
15.03456 11.144901
15.0436 11.97874
15.05264 12.589749
15.06167 12.731701
15.07071 12.446615
15.07975 12.305115
15.08879 12.151231
15.09783 11.533664
15.10686 10.790544
15.1159 11.242132
15.12494 11.515551
15.13398 11.837733
15.14302 11.198993
15.15205 11.183818
15.16109 11.941148
15.17013 11.95401
15.17917 11.806693
15.18821 11.85153
15.19724 11.894214
15.20628 11.784214
15.21532 11.726912
15.22436 11.264598
15.2334 10.734877
15.24243 10.30433
15.25147 10.203935
15.26051 10.917265
15.26955 11.575274
15.27859 11.376188
15.28762 11.294945
15.29666 11.312047
15.3057 11.907887
15.31474 11.832706
15.32378 11.674689
15.33281 11.84346
15.34185 11.824156
15.35089 11.632897
15.35993 10.802242
15.36897 10.499697
15.378 9.8639403
15.38704 9.858337
15.39608 9.398362
15.40512 9.856337
15.41416 10.46684
15.42319 10.950455
15.43223 12.119184
15.44127 12.672587
15.45031 12.705691
15.45935 13.007726
15.46838 12.387444
15.47742 12.111306
15.48646 11.35554
15.4955 10.74959
15.50454 10.875436
15.51357 10.569017
15.52261 10.241265
15.53165 9.4081208
15.54069 9.0065484
15.54973 9.2524447
15.55876 9.712687
15.5678 9.5453799
15.57684 9.9196929
15.58588 10.404259
15.59492 10.154323
15.60395 9.5916301
15.61299 9.4492941
15.62203 10.33978
15.63107 10.80317
15.64011 10.377843
15.64914 10.661686
15.65818 10.750678
15.66722 11.306567
15.67626 11.713152
15.6853 11.271585
15.69433 11.096596
15.70337 10.428584
15.71241 9.8820859
15.72145 9.8841876
15.73049 9.6032176
15.73952 10.256418
15.74856 10.040396
15.7576 9.4750331
15.76664 9.0346921
15.77568 8.9104129
15.78471 8.9358606
15.79375 8.9013381
15.80279 9.2826043
15.81183 9.7483571
15.82087 10.688876
15.8299 11.045655
15.83894 10.919482
15.84798 10.557356
15.85702 10.328311
15.86606 10.212188
15.87509 9.3361179
15.88413 9.2624888
15.89317 8.3977939
15.90221 8.685415
15.91125 9.5785655
15.92029 9.888738
15.92932 10.084013
15.93836 9.7767041
15.9474 9.9266971
15.95644 9.8895575
15.96548 9.2332026
15.97451 8.7110381
15.98355 8.434381
15.99259 8.5509384
16.00163 8.7505615
16.01067 9.1059982
16.0197 9.5657599
16.02874 9.3000062
16.03778 8.6442803
16.04682 8.608038
16.05586 8.2273791
16.06489 8.1330909
16.07393 7.9656034
16.08297 7.9431229
16.09201 8.0635476
16.10105 8.1574579
16.11008 8.7334689
16.11912 9.3959873
16.12816 10.042185
16.1372 10.275012
16.14624 10.154127
16.15527 10.401368
16.16431 9.5163262
16.17335 9.0538904
16.18239 9.1689862
16.19143 9.2321397
16.20046 9.1794278
16.2095 8.9633341
16.21854 9.0947798
16.22758 10.079508
16.23662 10.391633
16.24565 10.045537
16.25469 9.4381357
16.26373 8.9717678
16.27277 8.7545256
16.28181 9.3450559
16.29084 9.580709
16.29988 10.315881
16.30892 10.413213
16.31796 9.7329443
16.327 10.04985
16.33603 10.589293
16.34507 10.876889
16.35411 10.423311
16.36315 10.222315
16.37219 10.649587
16.38122 10.922539
16.39026 10.84953
16.3993 10.682201
16.40834 10.582511
16.41738 10.500907
16.42641 10.175668
16.43545 10.818496
16.44449 10.825819
16.45353 11.010739
16.46257 11.125707
16.4716 10.525407
16.48064 10.135584
16.48968 10.163166
16.49872 10.367037
16.50776 10.804399
16.51679 10.376108
16.52583 10.356101
16.53487 10.289342
16.54391 9.9667818
16.55295 9.607367
16.56198 9.3423171
16.57102 10.095208
16.58006 11.243011
16.5891 11.916776
16.59814 12.070785
16.60717 11.338498
16.61621 10.594831
16.62525 11.103517
16.63429 10.645728
16.64333 10.474564
16.65236 9.3547607
16.6614 8.5861216
16.67044 8.521015
16.67948 7.5181077
16.68852 7.4295643
16.69755 7.612665
16.70659 7.6690529
16.71563 8.0862443
16.72467 7.8755045
16.73371 7.6363978
16.74274 7.5254596
16.75178 7.5023539
16.76082 8.2648345
16.76986 8.0170408
16.7789 8.2206091
16.78793 8.4189032
16.79697 8.2764815
16.80601 8.7710079
16.81505 9.7698095
16.82409 10.411039
16.83312 9.7945493
16.84216 8.3674985
16.8512 8.4737407
16.86024 8.2620199
16.86928 8.3104875
16.87832 8.6802741
16.88735 8.9516989
16.89639 8.5809042
16.90543 8.6370059
16.91447 8.3229152
16.92351 8.231627
16.93254 7.9377387
16.94158 8.5374037
16.95062 9.7941954
16.95966 9.5003599
16.9687 10.054201
16.97773 10.096616
16.98677 9.9789451
16.99581 9.2305712
17.00485 9.347622
17.01389 9.5421883
17.02292 9.22464
17.03196 8.3843757
17.041 8.3988633
17.05004 8.3613728
17.05908 8.4283179
17.06811 8.4501125
17.07715 8.2162551
17.08619 7.8988752
17.09523 7.6818443
17.10427 8.5384515
17.1133 8.2609999
17.12234 8.1475532
17.13138 8.0320657
17.14042 9.3521713
17.14946 9.3141165
17.15849 9.3575751
17.16753 9.0883896
17.17657 9.0851803
17.18561 9.0277007
17.19465 8.9123697
17.20368 8.9804694
17.21272 8.581269
17.22176 8.5782501
17.2308 8.351283
17.23984 7.7566439
17.24887 7.0022731
17.25791 6.6358683
17.26695 6.6875742
17.27599 7.154955
17.28503 7.4727078
17.29406 8.5288354
17.3031 8.4575044
17.31214 9.1198015
17.32118 7.9486659
17.33022 7.4180518
17.33925 7.0041565
17.34829 6.9089231
17.35733 7.4011624
17.36637 7.1002682
17.37541 6.8708325
17.38444 7.0036132
17.39348 6.5518026
17.40252 7.0815773
17.41156 6.7818175
17.4206 7.0987677
17.42963 7.6828743
17.43867 7.4767657
17.44771 8.0425443
17.45675 8.2100718
17.46579 8.4619442
17.47482 7.8981505
17.48386 7.2116919
17.4929 7.2430309
17.50194 7.6724994
17.51098 7.529657
17.52001 7.1363988
17.52905 6.2662871
17.53809 6.8594775
17.54713 7.805344
17.55617 8.8594805
17.5652 9.2854237
17.57424 9.0631655
17.58328 8.8671994
17.59232 8.1171585
17.60136 7.997679
17.61039 7.5482492
17.61943 7.4708245
17.62847 7.7785962
17.63751 8.335998
17.64655 8.5342592
17.65558 7.8947707
17.66462 7.6452553
17.67366 7.3404348
17.6827 7.8021007
17.69174 8.2345773
17.70077 8.6994158
17.70981 8.493327
17.71885 8.0222532
17.72789 7.5330788
17.73693 7.8500269
17.74596 7.8745504
17.755 7.8345873
17.76404 7.1122991
17.77308 7.4847308
17.78212 6.8869642
17.79115 6.8845405
17.80019 7.3836422
17.80923 8.7058884
17.81827 9.2677089
17.82731 8.7962822
17.83634 9.3549322
17.84538 9.2187388
17.85442 9.1735992
17.86346 8.6877448
17.8725 8.9587876
17.88154 9.4234875
17.89057 9.580333
17.89961 9.3974098
17.90865 8.9052393
17.91769 7.8615194
17.92673 8.0420687
17.93576 8.0079771
17.9448 8.4777607
17.95384 8.2784167
17.96288 8.7794816
17.97192 9.3954676
17.98095 9.6032024
17.98999 9.5708305
17.99903 9.616334
18.00807 9.3487039
18.01711 7.8209292
18.02614 6.8058325
18.03518 7.0489213
18.04422 7.4954806
18.05326 7.7405633
18.0623 7.7791545
18.07133 7.0321356
18.08037 6.7295134
18.08941 6.4301236
18.09845 7.260648
18.10749 8.6475752
18.11652 8.988327
18.12556 8.8557876
18.1346 8.6195792
18.14364 8.4309521
18.15268 9.3950966
18.16171 9.1551993
18.17075 8.9178713
18.17979 9.0392551
18.18883 8.6028005
18.19787 9.1214337
18.2069 8.4867129
18.21594 8.588676
18.22498 7.6749282
18.23402 6.8815194
18.24306 6.8062821
18.25209 6.8305163
18.26113 7.5733718
18.27017 7.2993987
18.27921 7.7662073
18.28825 7.8257496
18.29728 7.6064126
18.30632 7.3908782
18.31536 7.5669152
18.3244 8.3499849
18.33344 8.2361983
18.34247 8.7116739
18.35151 9.2450587
18.36055 9.3257237
18.36959 8.9044456
18.37863 8.3928413
18.38766 8.4243518
18.3967 7.9973129
18.40574 8.0588353
18.41478 7.5858204
18.42382 7.1844186
18.43285 7.4597306
18.44189 7.6765213
18.45093 7.9416369
18.45997 7.8218034
18.46901 7.739615
18.47804 8.0100088
18.48708 7.6526419
18.49612 7.9904724
18.50516 8.016908
18.5142 8.9250645
18.52323 9.2737415
18.53227 9.320242
18.54131 9.7170527
18.55035 9.1199141
18.55939 8.9206309
18.56842 8.8366159
18.57746 8.7346707
18.5865 8.4405999
18.59554 8.174586
18.60458 8.3563986
18.61361 9.0063209
18.62265 9.0834665
18.63169 8.8521802
18.64073 8.736258
18.64977 8.9046039
18.6588 9.277227
18.66784 9.6744285
18.67688 9.3561044
18.68592 9.9367993
18.69496 9.820574
18.70399 9.5885081
18.71303 8.5766447
18.72207 8.3959578
18.73111 9.7185281
18.74015 10.337497
18.74918 9.7243068
18.75822 8.8884104
18.76726 8.9571383
18.7763 9.2455929
18.78534 8.4764962
18.79437 8.8832439
18.80341 9.2539498
18.81245 10.320006
18.82149 9.5829209
18.83053 9.5623246
18.83956 8.8633904
18.8486 8.9509637
18.85764 9.1234323
18.86668 9.5162977
18.87572 9.3429706
18.88476 9.2653425
18.89379 9.781534
18.90283 10.014948
18.91187 9.7719307
18.92091 9.7196576
18.92995 9.1237951
18.93898 8.4729566
18.94802 7.9138031
18.95706 7.6557064
18.9661 8.1783106
18.97514 8.6613854
18.98417 9.4705459
18.99321 9.2567024
19.00225 9.7986905
19.01129 10.079045
19.02033 10.099931
19.02936 10.078421
19.0384 10.510272
19.04744 11.102481
19.05648 11.486538
19.06552 11.378882
19.07455 11.290698
19.08359 10.672197
19.09263 10.713896
19.10167 9.8347521
19.11071 10.131327
19.11974 10.579227
19.12878 9.9298238
19.13782 9.6881438
19.14686 9.387088
19.1559 9.8659674
19.16493 8.9468816
19.17397 9.1252117
19.18301 9.1315496
19.19205 9.5055875
19.20109 9.9885317
19.21012 10.173783
19.21916 10.148742
19.2282 10.421238
19.23724 11.003847
19.24628 10.920089
19.25531 10.198348
19.26435 10.225325
19.27339 9.7109205
19.28243 8.797415
19.29147 8.3656453
19.3005 9.6498727
19.30954 9.4180421
19.31858 9.839105
19.32762 9.5040591
19.33666 9.6217759
19.34569 9.057421
19.35473 9.2944359
19.36377 8.9417111
19.37281 7.4277589
19.38185 6.8618476
19.39088 7.8207978
19.39992 9.5227271
19.40896 10.444481
19.418 10.115709
19.42704 9.6654729
19.43607 9.1192834
19.44511 9.149105
19.45415 8.7134878
19.46319 8.2036663
19.47223 7.3220652
19.48126 7.6515447
19.4903 7.5393603
19.49934 7.9124091
19.50838 7.7469854
19.51742 8.0314112
19.52645 7.9268319
19.53549 8.3214441
19.54453 8.2743972
19.55357 7.7154391
19.56261 7.0803483
19.57164 7.882794
19.58068 8.5139834
19.58972 9.04777
19.59876 9.2619484
19.6078 9.8232984
19.61683 9.9401468
19.62587 9.8479574
19.63491 9.552095
19.64395 9.5639953
19.65299 9.5891947
19.66202 9.30009
19.67106 8.3085376
19.6801 8.2061627
19.68914 7.9638706
19.69818 8.2929892
19.70721 8.108066
19.71625 9.0910022
19.72529 9.3324139
19.73433 9.8961996
19.74337 10.117998
19.7524 9.7589791
19.76144 8.3594587
19.77048 7.5387767
19.77952 6.9857498
19.78856 7.1060789
19.79759 8.0637349
19.80663 9.4034428
19.81567 10.2679
19.82471 10.072848
19.83375 10.386796
19.84278 10.546403
19.85182 10.10614
19.86086 10.023408
19.8699 10.235001
19.87894 9.8926023
19.88798 9.4033989
19.89701 8.7735055
19.90605 8.445673
19.91509 8.515326
19.92413 8.7292523
19.93317 8.5065444
19.9422 8.3193909
19.95124 8.3851516
19.96028 8.2132244
19.96932 8.3909003
19.97836 8.8151067
19.98739 9.27899
19.99643 9.5620359
20.00547 9.6474906
20.01451 9.7035385
20.02355 9.5355634
20.03258 10.244612
20.04162 10.289038
20.05066 9.8113232
20.0597 9.6485923
20.06874 9.2918814
20.07777 7.9089183
20.08681 6.9434656
20.09585 7.0441366
20.10489 8.0404197
20.11393 8.9935005
20.12296 9.2649153
20.132 9.2782213
20.14104 9.0787239
20.15008 9.3372483
20.15912 9.1138714
20.16815 8.7059513
20.17719 8.4394807
20.18623 8.6824029
20.19527 7.9822882
20.20431 7.7902643
20.21334 7.6367389
20.22238 7.924036
20.23142 7.5092014
20.24046 5.2018026
20.2495 5.4788734
20.25853 6.3424906
20.26757 7.4394378
20.27661 7.8740988
20.28565 7.4049283
20.29469 6.9392264
20.30372 6.2294138
20.31276 5.6428176
20.3218 6.0821995
20.33084 6.6163859
20.33988 6.9968585
20.34891 6.7914457
20.35795 7.5087967
20.36699 8.2825255
20.37603 8.1414757
20.38507 7.645377
20.3941 7.5848854
20.40314 7.8820101
20.41218 7.7471517
20.42122 6.999701
20.43026 6.4896721
20.43929 6.7377199
20.44833 6.3747897
20.45737 5.613035
20.46641 6.084682
20.47545 6.807698
20.48448 7.0229971
20.49352 6.7149732
20.50256 6.6963132
20.5116 6.5130839
20.52064 6.5305385
20.52967 6.5252753
20.53871 7.5523002
20.54775 8.0945266
20.55679 8.3743761
20.56583 7.4432983
20.57486 6.9745426
20.5839 7.5248795
20.59294 7.0486542
20.60198 6.3780779
20.61102 6.2722594
20.62005 7.1956353
20.62909 8.608698
20.63813 9.6734269
20.64717 10.851566
20.65621 10.816408
20.66524 11.132336
20.67428 10.799329
20.68332 10.305265
20.69236 9.1453511
20.7014 8.2532035
20.71043 7.5011318
20.71947 7.7373601
20.72851 7.6841577
20.73755 6.3478087
20.74659 6.8660081
20.75562 7.0825017
20.76466 7.6666801
20.7737 7.0516083
20.78274 6.5775386
20.79178 6.2185176
20.80081 6.542392
20.80985 6.6945974
20.81889 6.4921567
20.82793 7.0211996
20.83697 7.5548347
20.846 7.9873093
20.85504 8.505403
20.86408 8.4723223
20.87312 8.5981867
20.88216 7.7851907
20.8912 7.3239694
20.90023 7.3401359
20.90927 7.6295665
20.91831 8.3467331
20.92735 8.4267322
20.93639 8.5359286
20.94542 9.239144
20.95446 10.047553
20.9635 9.7686235
20.97254 9.887443
20.98158 9.7704829
20.99061 8.6791788
20.99965 8.4888827
21.00869 8.3943752
21.01773 8.5699525
21.02677 8.6225307
21.0358 8.6057711
21.04484 8.1833533
21.05388 7.5246604
21.06292 7.1052357
21.07196 7.4078329
21.08099 8.0708359
21.09003 8.2269416
21.09907 7.5417761
21.10811 8.7569077
21.11715 8.569135
21.12618 7.8832457
21.13522 6.1946155
21.14426 6.9545487
21.1533 6.5720104
21.16234 6.1628279
21.17137 5.5509227
21.18041 6.361808
21.18945 6.8046335
21.19849 6.727827
21.20753 6.8165149
21.21656 7.1913953
21.2256 7.5107871
21.23464 7.3181879
21.24368 7.7590942
21.25272 7.8064382
21.26175 8.3411231
21.27079 8.2552667
21.27983 8.6902538
21.28887 8.1266935
21.29791 7.818177
21.30694 7.0480106
21.31598 7.5670654
21.32502 7.3813365
21.33406 7.8203435
21.3431 7.4800424
21.35213 7.2845868
21.36117 6.8798321
21.37021 6.5671431
21.37925 7.1209577
21.38829 7.618186
21.39732 8.2570285
21.40636 7.3738071
21.4154 6.9100295
21.42444 6.5781202
21.43348 7.1756267
21.44251 7.6870195
21.45155 7.2880604
21.46059 7.2581441
21.46963 6.7424184
21.47867 7.4176227
21.4877 7.3790943
21.49674 7.5816257
21.50578 6.9574961
21.51482 7.5041491
21.52386 7.9604373
21.53289 8.1193844
21.54193 6.8300804
21.55097 6.9140993
21.56001 6.7153276
21.56905 6.7683865
21.57808 6.5022021
21.58712 6.4370685
21.59616 6.3085629
21.6052 5.4176976
21.61424 5.7518162
21.62327 6.0528431
21.63231 6.5609339
21.64135 6.5926656
21.65039 7.0431612
21.65943 7.1521293
21.66846 7.065255
21.6775 6.3791443
21.68654 6.6903477
21.69558 7.7206588
21.70462 6.9330306
21.71365 6.1603925
21.72269 6.7539459
21.73173 7.8424773
21.74077 7.7821852
21.74981 7.124236
21.75884 6.5961253
21.76788 6.219906
21.77692 6.7046827
21.78596 7.2991354
21.795 8.4024713
21.80403 8.6761094
21.81307 7.4471972
21.82211 6.6410825
21.83115 7.0075471
21.84019 7.3854983
21.84922 6.8799021
21.85826 6.8004823
21.8673 7.1246847
21.87634 6.6056957
21.88538 6.6280865
21.89442 6.2244286
21.90345 4.2124016
21.91249 3.6987426
21.92153 3.9278832
21.93057 4.7542042
21.93961 5.2637975
21.94864 6.3868114
21.95768 6.2012521
21.96672 6.7844894
21.97576 7.5105143
21.9848 7.6218284
21.99383 8.4847307
22.00287 9.452295
22.01191 8.3442233
22.02095 7.7590079
22.02999 7.0402622
22.03902 7.11597
22.04806 6.7253388
22.0571 6.6094734
22.06614 6.1946738
22.07518 6.2825662
22.08421 6.8929271
22.09325 7.8728165
22.10229 8.906315
22.11133 9.3367816
22.12037 9.0182781
22.1294 8.8818663
22.13844 8.3665922
22.14748 7.9021625
22.15652 7.5442602
22.16556 7.0639611
22.17459 6.671981
22.18363 6.1945314
22.19267 6.4067936
22.20171 6.3093928
22.21075 6.577003
22.21978 6.0963141
22.22882 6.3332752
22.23786 7.0623809
22.2469 8.3760928
22.25594 7.6504178
22.26497 7.3987887
22.27401 6.626685
22.28305 6.5595663
22.29209 7.130005
22.30113 8.0504487
22.31016 8.2270439
22.3192 8.4328994
22.32824 8.2572533
22.33728 7.3219632
22.34632 7.0128376
22.35535 7.2524517
22.36439 7.0259254
22.37343 6.7066951
22.38247 7.1901308
22.39151 7.5063829
22.40054 8.4429094
22.40958 8.4851147
22.41862 8.8254527
22.42766 8.1089134
22.4367 7.7505524
22.44573 8.3913371
22.45477 7.313675
22.46381 6.4399183
22.47285 6.221378
22.48189 7.0910619
22.49092 7.1532693
22.49996 6.9500091
22.509 6.2981776
22.51804 6.3118436
22.52708 6.6079323
22.53611 7.5159374
22.54515 7.776381
22.55419 8.380067
22.56323 9.1347659
22.57227 10.004176
22.5813 9.2126293
22.59034 8.3875884
22.59938 7.3195406
22.60842 6.1779104
22.61746 6.5840241
22.62649 8.1845585
22.63553 8.8469882
22.64457 8.2043881
22.65361 7.9091517
22.66265 7.2920152
22.67168 6.4722844
22.68072 6.7870032
22.68976 7.6399594
22.6988 7.8417929
22.70784 6.2576514
22.71687 6.0659076
22.72591 6.5298469
22.73495 7.4122058
22.74399 7.3893692
22.75303 7.9198897
22.76206 7.9370292
22.7711 7.4599336
22.78014 6.9619515
22.78918 7.936146
22.79822 7.9048967
22.80725 6.5598508
22.81629 5.559455
22.82533 5.938468
22.83437 5.8488369
22.84341 5.5362915
22.85244 6.3770612
22.86148 7.6423504
22.87052 7.3648199
22.87956 6.7391151
22.8886 6.8719705
22.89764 7.1454192
22.90667 7.3642985
22.91571 6.9857701
22.92475 8.0795597
22.93379 8.2641979
22.94283 7.552602
22.95186 5.8948293
22.9609 4.4489905
22.96994 3.7787891
22.97898 5.5652925
22.98802 5.8151699
22.99705 4.3270961
23.00609 5.1109546
23.01513 7.7254262
23.02417 8.3203704
23.03321 8.4829626
23.04224 8.0278619
23.05128 8.0056994
23.06032 7.7261252
23.06936 8.2734623
23.0784 9.3908051
23.08743 9.6653156
23.09647 7.3906027
23.10551 6.5009776
23.11455 8.1040454
23.12359 8.9409776
23.13262 8.1175968
23.14166 6.8965918
23.1507 6.0864642
23.15974 6.0444572
23.16878 6.7078729
23.17781 6.3834014
23.18685 6.0619836
23.19589 6.5510655
23.20493 6.9052279
23.21397 7.2847115
23.223 7.5174313
23.23204 7.2971033
23.24108 7.3176716
23.25012 8.5393615
23.25916 8.8854533
23.26819 8.1469787
23.27723 8.2848461
23.28627 9.5310226
23.29531 9.4880635
23.30435 9.179232
23.31338 8.4749926
23.32242 6.9969738
23.33146 6.2195709
23.3405 6.4720714
23.34954 6.4749688
23.35857 6.3999269
23.36761 6.9253536
23.37665 7.2761741
23.38569 7.151897
23.39473 6.8193288
23.40376 6.9755841
23.4128 8.1433727
23.42184 8.8893547
23.43088 8.9092889
23.43992 9.2276428
23.44895 9.364919
23.45799 9.3050346
23.46703 9.0056917
23.47607 6.8241034
23.48511 5.9310695
23.49414 5.9138483
23.50318 6.1465292
23.51222 6.4483807
23.52126 6.8637904
23.5303 6.8263279
23.53933 6.873941
23.54837 7.1852949
23.55741 5.9917187
23.56645 5.9251175
23.57549 6.4520188
23.58452 8.0487217
23.59356 7.8546629
23.6026 7.8023617
23.61164 7.5311913
23.62068 8.5279121
23.62971 9.3624884
23.63875 9.4288693
23.64779 8.1255612
23.65683 6.7284695
23.66587 6.1849819
23.6749 6.5550438
23.68394 6.612965
23.69298 6.6160029
23.70202 7.5361206
23.71106 7.618304
23.72009 7.6628504
23.72913 7.5814227
23.73817 7.1835863
23.74721 6.519985
23.75625 6.570972
23.76528 5.3322013
23.77432 5.3100797
23.78336 5.8731884
23.7924 6.265647
23.80144 6.544651
23.81047 7.4672183
23.81951 7.5181207
23.82855 7.1111565
23.83759 7.2114078
23.84663 8.0739382
23.85566 7.6401216
23.8647 7.58997
23.87374 8.4225273
23.88278 7.7493918
23.89182 6.6188494
23.90086 6.3349182
23.90989 6.4953349
23.91893 6.2960368
23.92797 7.6690458
23.93701 8.4496419
23.94605 7.6622512
23.95508 6.418967
23.96412 6.0725612
23.97316 7.1682789
23.9822 7.5411663
23.99124 7.8091934
24.00027 7.7177241
24.00931 6.5772365
24.01835 5.8846181
24.02739 5.3349372
24.03643 5.1430258
24.04546 5.8088634
24.0545 5.8825803
24.06354 5.4987818
24.07258 5.552669
24.08162 5.8059621
24.09065 7.6252961
24.09969 8.9616421
24.10873 8.1128605
24.11777 7.4558395
24.12681 8.0947857
24.13584 7.8811974
24.14488 8.4222713
24.15392 9.0202533
24.16296 7.903334
24.172 7.1440828
24.18103 7.3787049
24.19007 7.8499453
24.19911 8.6411207
24.20815 8.6321985
24.21719 7.616365
24.22622 6.5536452
24.23526 6.1785455
24.2443 6.723047
24.25334 6.5741058
24.26238 7.1452783
24.27141 8.6973641
24.28045 8.8985036
24.28949 8.3364219
24.29853 7.4655106
24.30757 7.3249274
24.3166 6.4606721
24.32564 5.6275545
24.33468 5.4564209
24.34372 5.6395346
24.35276 5.2428506
24.36179 5.1710431
24.37083 5.3190222
24.37987 7.4325128
24.38891 8.2243663
24.39795 7.9496284
24.40698 6.7078019
24.41602 6.4452056
24.42506 6.3476383
24.4341 6.2994888
24.44314 5.6321468
24.45217 6.5139614
24.46121 7.3095716
24.47025 6.5581249
24.47929 5.4876743
24.48833 5.5029724
24.49736 6.5536673
24.5064 6.9222806
24.51544 6.8262496
24.52448 6.3482995
24.53352 6.1355567
24.54255 6.5866564
24.55159 6.4603603
24.56063 6.0620372
24.56967 5.3059864
24.57871 3.9849565
24.58774 4.1227172
24.59678 5.7558518
24.60582 5.195788
24.61486 3.549117
24.6239 3.3487422
24.63293 4.427452
24.64197 3.3922795
24.65101 3.9233453
24.66005 4.9571729
24.66909 5.5275199
24.67812 5.9504491
24.68716 6.1009417
24.6962 4.0794103
24.70524 3.2623924
24.71428 3.473806
24.72331 2.9606376
24.73235 3.0259227
24.74139 4.6047303
24.75043 4.329507
24.75947 4.7271471
24.7685 6.0296426
24.77754 6.514154
24.78658 5.2647014
24.79562 4.3736775
24.80466 4.9161969
24.81369 5.8971729
24.82273 4.9992998
24.83177 4.4191227
24.84081 4.5078391
24.84985 3.5251372
24.85888 3.1951771
24.86792 3.8231222
24.87696 4.366199
24.886 5.6581133
24.89504 5.7861103
24.90408 6.2814304
24.91311 6.5235061
24.92215 5.9106088
24.93119 5.3169598
24.94023 4.9298831
24.94927 4.8091662
24.9583 4.6486199
24.96734 4.2273217
24.97638 3.5002938
24.98542 3.3173875
24.99446 3.8888691
25.00349 4.222594
25.01253 4.2333977
25.02157 2.9801793
25.03061 3.0941194
25.03965 3.1495252
25.04868 3.8367675
25.05772 3.9566609
25.06676 3.920921
25.0758 4.7248293
25.08484 6.7461892
25.09387 7.1384186
25.10291 6.6497994
25.11195 5.5580757
25.12099 4.6230118
25.13003 4.7523528
25.13906 4.0168164
25.1481 3.1471963
25.15714 4.2565422
25.16618 4.4940567
25.17522 4.5187905
25.18425 4.3693189
25.19329 3.5174585
25.20233 2.2969441
25.21137 2.8044257
25.22041 3.8162542
25.22944 3.1933709
25.23848 2.6399979
25.24752 2.82401
25.25656 3.5404406
25.2656 3.8231526
25.27463 2.9809581
25.28367 2.4862263
25.29271 3.5691664
25.30175 3.9292423
25.31079 4.2319801
25.31982 3.479038
25.32886 4.147708
25.3379 5.4691526
25.34694 4.9850011
25.35598 4.4970938
25.36501 4.7894587
25.37405 5.4325883
25.38309 5.3478804
25.39213 5.5284009
25.40117 5.4985664
25.4102 5.5399991
25.41924 5.4687938
25.42828 5.0603869
25.43732 4.5972404
25.44636 3.0463042
25.45539 2.838716
25.46443 3.8500709
25.47347 4.2334588
25.48251 2.0750669
25.49155 1.1873052
25.50058 1.7361726
25.50962 2.115744
25.51866 3.4327081
25.5277 4.0020999
25.53674 3.2959524
25.54577 4.0683562
25.55481 3.2533204
25.56385 2.0283413
25.57289 1.7756594
25.58193 0.7880053
25.59096 1.4399595
25.6 2.8923503
25.60904 2.9257531
25.61808 2.4805737
25.62712 3.1614052
25.63615 4.2924221
25.64519 3.2757272
25.65423 1.6900562
25.66327 0.97525063
25.67231 1.5934361
25.68134 1.9249486
25.69038 0.53166938
25.69942 0.80678011
25.70846 1.0349765
25.7175 0.23423676
25.72653 2.0596544
25.73557 2.3890812
25.74461 1.3568101
25.75365 1.7422348
25.76269 3.3212696
25.77172 4.1544003
25.78076 3.0442357
25.7898 3.8742916
25.79884 2.98549
25.80788 2.2096276
25.81691 2.4303575
25.82595 0.88887987
25.83499 1.3325718
25.84403 1.6606186
25.85307 1.5399706
25.8621 2.2256097
25.87114 1.9630444
25.88018 1.855487
25.88922 1.7697463
25.89826 1.6130015
25.9073 1.1597075
25.91633 0.57181914
25.92537 0.25658987
25.93441 0.80480918
25.94345 1.5314553
25.95249 1.868545
25.96152 2.6373915
25.97056 2.9585031
25.9796 2.0613696
25.98864 2.0367833
25.99768 1.6720934
26.00671 0.31084906
26.01575 0.25116618
26.02479 0.010377493
26.03383 -0.43286872
26.04287 0.89474642
26.0519 1.3210027
26.06094 0.90027286
26.06998 0.20632974
26.07902 0.38688502
26.08806 0.4706797
26.09709 0.48740147
26.10613 1.0512231
26.11517 0.95078833
26.12421 0.88057305
26.13325 2.3932211
26.14228 2.9860547
26.15132 3.7390426
26.16036 3.4174624
26.1694 2.7438811
26.17844 2.3804315
26.18747 1.2554175
26.19651 0.30138464
26.20555 0.1313368
26.21459 0.5835612
26.22363 1.7987566
26.23266 1.9835013
26.2417 1.0421604
26.25074 0.75280248
26.25978 0.49003676
26.26882 0.73159013
26.27785 1.5690427
26.28689 1.6140119
26.29593 1.6844007
26.30497 1.7334505
26.31401 1.9780238
26.32304 2.5822223
26.33208 2.5793937
26.34112 1.4872871
26.35016 2.0518235
26.3592 2.4229272
26.36823 0.5924685
26.37727 -0.36107387
26.38631 1.7341146
26.39535 3.0156371
26.40439 1.8497208
26.41342 0.50108468
26.42246 0.37953933
26.4315 1.3215334
26.44054 2.3107417
26.44958 2.7412393
26.45861 2.2184636
26.46765 1.6287778
26.47669 2.7150539
26.48573 2.2553979
26.49477 2.4277159
26.5038 2.6453013
26.51284 2.1689392
26.52188 1.9573549
26.53092 1.0058096
26.53996 1.6579004
26.54899 1.2681745
26.55803 0.17760816
26.56707 -0.044553367
26.57611 0.12732906
26.58515 1.1896321
26.59418 0.46299308
26.60322 0.063242271
26.61226 0.007961196
26.6213 -0.027015897
26.63034 0.89080771
26.63937 2.9721586
26.64841 2.6531806
26.65745 0.19173297
26.66649 -0.52056409
26.67553 0.060174646
26.68456 0.3241079
26.6936 1.4078666
26.70264 1.5528068
26.71168 0.6736822
26.72072 0.32814786
26.72975 0.39283774
26.73879 0.44602122
26.74783 -0.48955112
26.75687 -0.42328687
26.76591 0.86534921
26.77494 1.3315208
26.78398 2.8522846
26.79302 3.1599765
26.80206 1.9933424
26.8111 2.3313633
26.82013 2.0172526
26.82917 1.5300293
26.83821 1.5549027
26.84725 1.1667541
26.85629 0.61526754
26.86532 -0.3053366
26.87436 -1.3257244
26.8834 -2.1788979
26.89244 -2.1142389
26.90148 0.90414898
26.91052 2.0702827
26.91955 2.9194331
26.92859 3.6300982
26.93763 4.5639865
26.94667 4.8089697
26.95571 4.1448589
26.96474 3.3962986
26.97378 2.149814
26.98282 1.5948061
26.99186 2.856498
27.0009 2.6866127
27.00993 1.1605598
27.01897 0.69561573
27.02801 1.0398859
27.03705 0.47995275
27.04609 -1.0855756
27.05512 -0.22699724
27.06416 1.1367745
27.0732 0.87736082
27.08224 -0.51440687
27.09128 -1.1038913
27.10031 -0.58723313
27.10935 0.3050572
27.11839 1.2721032
27.12743 1.269947
27.13647 0.67527934
27.1455 0.58945345
27.15454 0.12086684
27.16358 -0.73413227
27.17262 -1.451856
27.18166 -0.28689548
27.19069 -0.30780323
27.19973 -2.3570794
27.20877 -2.5247693
27.21781 -3.1889408
27.22685 -2.34811
27.23588 -1.0932762
27.24492 -0.26106084
27.25396 0.72828245
27.263 0.52081884
27.27204 0.72498967
27.28107 1.3652143
27.29011 2.1896368
27.29915 0.9100967
27.30819 1.226936
27.31723 0.90767605
27.32626 0.028358237
27.3353 0
